Vsg [V],Vr [mV]
0.0,0.00
0.2,0.00
0.4,0.00
0.6,0.00
0.8,0.00
1.0,0.00
1.2,0.00
1.4,0.00
1.6,0.02
1.8,0.29
2.0,0.97
2.2,2.01
2.4,3.35
2.6,4.97
2.8,6.82
3.0,8.89
3.2,11.16
3.4,13.59
3.6,16.18
3.8,18.92
4.0,21.79
4.2,24.78
4.4,27.89
4.6,31.10
4.8,34.40
5.0,37.78
