Vsg [V],Id [mA]
0.0,0.00
0.2,0.00
0.4,0.00
0.6,0.00
0.8,0.00
1.0,0.00
1.2,0.00
1.4,0.00
1.6,0.01
1.8,0.06
2.0,0.15
2.2,0.27
2.4,0.42
2.6,0.60
2.8,0.80
3.0,1.02
3.2,1.26
3.4,1.51
3.6,1.78
3.8,2.07
4.0,2.36
